,Easting(m),Northing(m),Elevation(m)
0,464529.5313,3602060.75,-1354.8848
1,464204.3438,3602588.0,-1223.7091
2,463775.5625,3603269.75,-1167.7889
3,463268.7813,3604018.75,-1179.4192
4,462597.0,3604756.0,-1213.8055
5,461830.2813,3605541.75,-1258.6112
6,461105.4375,3606148.0,-1264.6606
7,460471.6875,3606693.0,-1242.7394
8,459993.2188,3607261.5,-1095.2518
9,459741.6563,3607666.0,-825.4728
10,459794.2813,3608126.5,-622.7379
11,459895.1563,3608630.0,-410.4072
12,459988.1563,3609242.75,-228.4137
13,460032.4727,3609605.6563,-148.2461
14,460194.2852,3609926.0938,-146.8141
15,460215.1641,3609967.4375,-146.6293
16,460249.4219,3610034.5625,-146.5332
17,460402.6914,3610280.5313,-146.0599
18,460441.5898,3610366.25,-145.9583
19,460521.5742,3610542.4688,-145.7492
20,460646.4766,3610714.0625,-167.0428
21,460718.543,3610813.0625,-179.3288
22,460680.4258,3611173.1875,-196.6303
23,460692.7539,3611249.6875,-202.1687
24,460728.2656,3611470.0313,-218.1201
25,460759.0234,3611650.8438,-231.8223
26,460576.1367,3611843.125,-227.096
27,460474.1563,3611950.3438,-224.4605
28,460259.4766,3612207.4063,-220.8107
29,460224.543,3612249.25,-220.2168
30,460195.582,3612277.5313,-218.0326
31,460128.5703,3612342.9688,-212.9794
32,459945.9961,3612485.3125,-200.7462
33,459861.7852,3612550.9688,-195.1036
34,459694.668,3612656.9688,-184.9412
35,459602.2188,3612715.625,-179.3194
36,459341.0742,3612927.3125,-161.4758
37,459329.4766,3612942.4063,-162.7977
38,459320.4883,3612954.125,-163.8218
39,459249.6914,3613015.0938,-169.8787
40,459164.668,3613088.2813,-177.1524
41,458998.9453,3613242.6875,-196.2889
42,458921.3711,3613315.8438,-205.3026
43,458813.375,3613417.6875,-217.8513
44,458809.625,3613420.3438,-218.2314
45,458806.8633,3613422.3125,-218.5116
46,458624.8359,3613531.6875,-227.923
47,458392.9414,3613671.0,-239.9128
48,458133.3789,3613813.0938,-251.897
49,458055.0508,3613846.1563,-254.4955
50,457712.3945,3613990.875,-265.8629
51,457571.6016,3614033.0938,-268.7419
52,457433.0195,3614074.625,-271.5756
53,457430.8086,3614075.2813,-271.6148
54,457425.9648,3614076.6875,-271.7007
55,457248.9531,3614118.1875,-273.7687
56,457024.8242,3614124.75,-254.4861
57,457041.5156,3614126.7813,-257.1212
58,457018.793,3614126.875,-254.8983
59,456981.707,3614140.0,-257.4323
60,457154.0,3614140.4688,-274.878
61,456782.9492,3614257.4375,-269.4546
62,456576.4492,3614363.4375,-282.4743
63,456461.1328,3614422.625,-289.7449
64,456414.8672,3614454.3125,-292.4001
65,456229.9414,3614580.9375,-303.0125
66,456094.2617,3614680.8438,-310.5671
67,455952.7109,3614785.0938,-318.4487
68,455825.0977,3614891.5313,-325.1433
69,455664.3789,3615025.5625,-333.5746
70,455422.5117,3615160.8125,-348.4576
71,455369.2969,3615193.7188,-353.116
72,455368.3672,3615194.2813,-353.1975
73,455143.75,3615415.0625,-372.0427
74,455119.8086,3615438.75,-374.1096
75,455041.5781,3615516.125,-380.8635
76,454838.7461,3615781.8438,-397.724
77,454802.3477,3615819.5625,-400.8488
78,454564.6328,3616066.0313,-421.2578
79,454352.168,3616366.2188,-438.7014
80,454310.1797,3616425.5313,-442.1487
81,454248.2461,3616497.4688,-447.3889
82,454201.8125,3616554.3125,-452.1142
83,454166.9453,3616597.0,-455.6625
84,454146.1172,3616631.9375,-457.3189
85,454123.1445,3616670.5,-459.1459
86,454057.2969,3616767.0938,-461.3205
87,454039.457,3616802.4688,-461.2045
88,453888.9531,3617100.875,-460.2256
89,453834.3008,3617212.7813,-460.3856
90,453800.4414,3617282.125,-460.4847
91,453788.4375,3617308.1563,-460.4653
92,453783.7031,3617319.6563,-460.4107
93,453807.75,3617320.0,-468.1763
94,453779.6172,3617329.5938,-460.3636
95,453683.2266,3617605.1875,-457.7094
96,453554.7109,3617972.5938,-454.1705
97,453477.6172,3618072.7188,-456.5632
98,453404.8438,3618189.125,-457.999
99,453375.2031,3618236.5625,-458.5838
100,453372.6836,3618242.0938,-458.8403
101,453288.6172,3618393.9688,-466.57
102,453262.3867,3618441.3438,-468.9819
103,453238.4805,3618485.1875,-471.292
104,453136.1602,3618672.875,-481.1796
105,453135.0273,3618675.25,-481.3383
106,453134.7813,3618675.75,-481.3727
107,453017.2031,3618903.0313,-497.3119
108,452833.2344,3619183.5625,-520.2006
109,452658.1992,3619578.9688,-545.4862
110,452522.9766,3619778.0938,-562.1174
111,452363.293,3620171.0938,-586.0663
112,452361.9063,3620188.0,-589.1304
113,452265.3125,3620687.0,-647.1555
114,452143.2188,3621257.0,-667.3212
115,452015.625,3621854.5,-687.6375
116,451833.4063,3622488.5,-774.9348
117,451561.5313,3623220.5,-858.13
118,451267.8438,3624020.5,-914.8642
119,450854.3438,3624696.5,-914.7822
120,450450.7813,3625349.0,-924.6518
121,450044.25,3626017.0,-931.5799
122,449631.5313,3626729.5,-942.1653
123,449182.6875,3627481.75,-975.2251
124,448666.5938,3628194.25,-1008.0851
125,448175.1563,3628854.0,-1066.4526
126,447655.9375,3629447.75,-1094.0574
127,447187.1875,3629987.0,-1092.4985
128,446852.75,3630452.0,-1094.1437
129,446561.5938,3630973.75,-1104.681
130,446218.5625,3631607.0,-1102.1577
131,445935.0313,3632131.0,-1099.3228
132,445635.9375,3632671.25,-1106.5007
133,445250.0313,3633338.5,-1100.7996
134,444803.5625,3634120.0,-1082.1714
135,444368.7188,3634830.0,-1073.4281
