,Easting(m),Northing(m),Elevation(m)
0,376109.0,3797616.0,401.0
1,375880.0,3797304.0,392.0
2,375599.0,3797348.0,392.0
3,375318.0,3797392.0,392.0
4,375007.5,3797523.0,396.5
5,374697.0,3797654.0,401.0
6,374377.5,3797796.0,405.0
7,374058.0,3797938.0,409.0
8,373813.5,3798108.5,413.0
9,373569.0,3798279.0,417.0
10,373318.0,3798276.5,417.0
11,373067.0,3798274.0,417.0
12,372666.0,3798426.0,417.0
13,372342.5,3798667.5,432.5
14,372019.0,3798909.0,448.0
15,371747.5,3798945.5,448.0
16,371476.0,3798982.0,448.0
17,371218.5,3799194.5,498.0
18,370961.0,3799407.0,548.0
19,370629.0,3799235.0,487.0
20,370214.1875,3799279.0,499.2
21,369799.4063,3799323.0,511.4
22,369384.5938,3799367.0,523.6
23,368969.8125,3799411.0,535.8
24,368555.0,3799455.0,548.0
25,368244.0,3799298.0,487.0
26,367803.0,3799213.5,487.0
27,367362.0,3799129.0,487.0
28,366915.3438,3799180.25,487.0
29,366468.6563,3799231.75,487.0
30,366022.0,3799283.0,487.0
31,365657.0,3799196.0,487.0
32,365383.0,3799345.5,485.0
33,365109.0,3799495.0,483.0
34,364688.8125,3799472.5,474.4
35,364268.5938,3799450.25,465.8
36,363848.4063,3799427.75,457.2
37,363428.1875,3799405.5,448.6
38,363008.0,3799383.0,440.0
39,362771.4688,3799188.5,433.0
40,362534.9375,3798994.0,426.0
41,362254.1875,3798815.75,428.0
42,362136.0156,3798763.2813,428.84
43,362017.8438,3798710.7969,429.67
44,361899.6719,3798658.3281,430.51
45,361852.625,3798533.0938,473.59
46,361810.7813,3798483.6563,481.61
47,361733.7656,3798387.3594,511.41
48,361640.4844,3798321.7813,507.91
49,361550.6875,3798258.9531,516.37
50,361462.7656,3798212.6875,479.89
51,361395.2656,3798187.7344,457.45
52,361351.375,3798136.5156,445.99
53,361291.0781,3798088.375,447.93
54,361245.1406,3798049.7656,450.24
55,361184.1875,3798026.4531,447.52
56,361138.3125,3798007.2344,450.04
57,361115.0938,3797944.0625,453.97
58,361075.5156,3797876.1094,460.16
59,361093.9219,3797842.0156,460.9
60,361102.9531,3797804.1563,449.37
61,361080.4844,3797756.5313,440.67
62,361091.9063,3797711.7813,455.87
63,361067.9688,3797663.6719,454.97
64,360958.2969,3797621.0156,458.46
65,360887.9844,3797583.875,436.42
66,360869.7031,3797530.8906,428.0
67,360855.4531,3797448.4844,420.17
68,360845.0156,3797336.5625,419.68
69,360830.125,3797263.6406,419.12
70,360770.5156,3797172.2969,438.73
71,360728.7031,3797095.1875,441.7
72,360714.4375,3796916.5938,451.92
73,360673.7031,3796834.1875,446.98
74,360183.3594,3796812.7969,532.25
75,360115.6719,3796818.2656,550.97
76,360039.6563,3796825.4531,549.56
77,359928.9063,3796812.0156,554.39
78,359823.4375,3796821.1875,539.86
79,359751.4844,3796809.75,557.5
80,359674.2344,3796804.125,555.82
81,359567.1563,3796834.2031,549.95
82,359505.7344,3796821.6563,578.38
83,359427.4063,3796806.5156,593.16
84,359365.8281,3796810.2344,570.19
85,359318.9219,3796817.2031,555.45
86,359270.25,3796814.4063,559.95
87,359202.5625,3796820.2031,575.14
88,359093.125,3796824.6875,568.02
89,358990.9375,3796817.6094,603.76
90,358911.5313,3796818.1875,573.0
91,358837.8438,3796799.6875,570.58
92,358776.1719,3796797.125,579.96
93,358709.7656,3796812.7969,572.76
94,358649.9375,3796819.1875,574.11
95,358576.5156,3796772.2656,625.91
96,358481.5469,3796725.5469,617.96
97,358388.8594,3796704.375,598.66
98,358322.9375,3796720.1563,580.54
99,358226.0,3796707.9531,545.94
100,358077.9063,3796736.5938,497.34
101,357988.6563,3796784.1094,475.41
102,357952.0938,3796740.6563,511.09
103,357897.5625,3796655.7656,558.05
104,357828.7031,3796611.0469,605.98
105,357769.1875,3796609.0781,601.71
106,357715.7656,3796631.625,623.3
107,357625.8906,3796656.3594,595.47
108,357537.1094,3796672.1875,597.18
109,357447.6406,3796699.7188,632.18
110,357370.6563,3796710.0938,659.15
111,357268.5625,3796748.7969,616.23
112,357203.9531,3796760.9375,580.92
113,357133.2031,3796803.8125,537.64
114,357094.1094,3796788.0625,537.48
115,357020.0938,3796771.8438,582.09
116,356955.0938,3796773.5156,599.82
117,356871.1875,3796818.6875,606.4
118,356798.625,3796838.3125,606.62
119,356723.4531,3796836.4531,613.79
120,356634.4531,3796843.8281,616.33
121,356568.1406,3796859.4063,608.47
122,356521.5156,3796851.7656,624.63
123,356473.9688,3796831.1094,650.33
124,356398.7031,3796840.7656,681.06
125,356307.3438,3796843.2656,697.86
126,356255.5313,3796832.2969,705.36
127,356189.875,3796831.4375,685.78
128,356125.4375,3796854.8125,683.79
129,356084.7969,3796830.5781,697.3
130,355999.4375,3796829.6875,693.83
131,355931.375,3796814.7656,711.3
132,355804.9063,3796832.2969,701.15
133,355713.7656,3796844.2031,695.6
134,355642.2344,3796859.7188,687.89
135,355579.8438,3796889.25,647.82
136,355536.7656,3796916.125,649.08
137,355493.9531,3796930.875,641.26
138,355438.1094,3796961.3906,660.24
139,355350.6406,3796994.3906,658.79
140,355282.75,3797035.4375,655.27
141,355067.1406,3797055.3125,620.96
142,355033.875,3797233.9531,612.68
143,355010.1563,3797337.9219,626.13
144,355032.0156,3797445.5469,652.26
145,354974.7031,3797446.2344,630.06
146,354955.2813,3797404.1875,629.19
147,354936.5,3797357.4688,630.79
148,354912.8438,3797296.7344,632.24
149,354858.4219,3797259.5156,623.61
150,354807.9375,3797321.1094,625.59
151,354782.5469,3797387.2031,648.17
152,354754.1563,3797481.0625,644.07
153,354736.3594,3797528.3125,630.52
154,354716.2656,3797575.5938,624.8
155,354740.5781,3797626.9688,625.87
156,354775.8906,3797682.6719,632.13
157,354772.9063,3797739.6563,620.49
158,354799.0625,3797796.4063,611.82
159,354793.7188,3797861.4375,623.23
160,354753.4063,3797919.1875,612.48
161,354716.3594,3797927.4063,629.13
162,354655.5469,3797978.25,642.54
163,354620.8281,3797965.0938,637.07
164,354577.7344,3797965.7969,634.35
165,354538.1563,3797933.8281,629.26
166,354482.0469,3797922.5156,656.29
167,354477.0625,3797899.2344,656.02
168,354496.9531,3797842.625,661.01
169,354481.7031,3797804.7031,671.52
170,354447.3906,3797740.0156,668.53
171,354391.2031,3797716.6094,680.76
172,354339.7656,3797766.8438,702.69
173,354283.4375,3797795.3594,700.06
174,354215.7344,3797802.7344,670.23
175,354161.9063,3797753.0,653.97
176,354127.3281,3797679.2344,640.16
177,354099.9688,3797641.5,653.71
178,354008.0469,3797558.7031,637.84
179,353901.7031,3797494.0938,642.28
180,353804.2813,3797490.4531,634.44
181,353710.9531,3797556.3438,662.17
182,353614.0625,3797687.0469,679.77
183,353467.2344,3797759.6406,656.38
184,353367.2656,3797821.0469,660.21
185,353351.9531,3797867.4531,665.35
186,353366.0,3797940.4688,680.7
187,353339.3438,3797978.5781,674.04
188,353348.375,3798029.8438,672.68
189,353377.4531,3798058.2656,665.94
190,353427.2031,3798087.1563,654.2
191,353467.5156,3798151.6094,658.43
192,353467.5313,3798206.5469,666.05
193,353474.9063,3798277.125,661.21
194,353535.6719,3798326.5469,669.27
195,353587.8438,3798406.7656,660.63
196,353536.5625,3798411.9375,660.63
197,353460.1875,3798414.8438,674.46
198,353478.4375,3798487.875,681.01
199,353443.5938,3798531.0469,676.06
200,353369.9531,3798528.1563,693.97
201,353319.7031,3798573.2031,702.58
202,353290.9844,3798646.4375,707.69
203,353253.6563,3798623.7031,707.49
204,353206.7656,3798551.7031,699.89
205,353200.9063,3798488.625,691.09
206,353191.0313,3798422.3281,698.92
207,353111.7656,3798423.2656,698.08
208,353085.0938,3798367.9531,670.71
209,353060.7344,3798291.4531,655.11
210,352981.9531,3798242.7813,642.06
211,353015.1094,3798174.6719,658.65
212,353032.2344,3798081.2656,657.63
213,353036.375,3798008.0625,642.89
214,353011.6875,3797907.9531,612.3
215,352941.5469,3797853.1719,598.99
216,352880.5781,3797806.9844,592.93
217,352817.375,3797754.5156,612.55
218,352715.3125,3797720.625,649.85
219,352532.75,3797680.0469,656.63
220,352470.25,3797704.125,653.81
221,352393.375,3797719.7031,638.05
222,352356.2188,3797686.6563,651.48
223,352308.625,3797668.2031,656.78
224,352261.75,3797659.3281,656.64
225,352230.8281,3797585.1563,647.72
226,352166.5781,3797567.0469,649.52
227,352082.3281,3797540.0156,637.94
228,351949.5938,3797517.8281,642.03
229,351838.4375,3797551.7813,637.47
230,351786.7969,3797561.5469,642.78
231,351718.2031,3797609.3125,633.22
232,351683.375,3797641.7969,652.17
233,351648.25,3797689.0156,648.87
234,351618.9844,3797754.5781,652.09
235,351641.5313,3797791.8281,650.74
236,351660.0156,3797839.2188,639.21
237,351652.9844,3797966.1563,635.1
238,351600.5,3797966.7656,634.04
239,351541.5625,3797965.1406,657.27
240,351522.2656,3797987.7344,666.71
241,351558.5156,3798034.1719,665.04
242,351625.4531,3798108.625,660.82
243,351687.5781,3798167.8281,667.2
244,351740.1875,3798254.1875,678.6
245,351742.5938,3798320.6563,669.84
246,351700.8125,3798424.5469,690.2
247,351654.5469,3798457.5313,689.99
248,351591.0625,3798419.7188,723.1
249,351553.3125,3798428.5781,727.15
250,351507.4375,3798460.375,732.11
251,351482.8281,3798444.3125,720.49
252,351436.7656,3798406.6719,700.96
253,351397.8281,3798337.7969,699.66
254,351343.9531,3798292.4063,697.03
255,351248.1563,3798429.5938,702.52
256,351152.3438,3798566.7969,708.01
257,351056.5313,3798704.0,713.5
258,351024.4063,3798864.75,722.25
259,350992.2813,3799025.5,731.0
260,351136.0625,3799067.375,761.5
261,351279.8438,3799109.25,792.0
262,351427.8125,3799404.0,790.0
263,351127.6563,3799604.75,760.5
264,350827.5,3799805.5,731.0
265,350503.8125,3799814.25,714.5
266,350180.1563,3799823.0,698.0
267,350078.1875,3800274.75,756.0
268,349798.625,3800610.25,749.0
269,349435.5313,3800509.5,704.0
270,349237.2813,3800353.0,692.0
271,349039.0313,3800196.25,680.0
272,348670.0,3800241.5,731.0
273,348821.375,3800652.5,792.0
274,348893.375,3801018.5,792.0
275,348603.5625,3800971.0,773.0
276,348313.7813,3800923.75,754.0
277,348120.25,3801260.25,853.0
278,347831.875,3801409.0,828.5
279,347543.5,3801557.5,804.0
280,347212.9688,3801669.25,842.0
281,347016.375,3801897.75,809.0
282,346819.8125,3802126.25,776.0
283,346496.7813,3802382.75,731.0
284,346208.0,3802393.25,723.0
285,345919.25,3802403.75,715.0
286,345668.0625,3802517.5,717.5
287,345416.875,3802631.25,720.0
288,345184.5,3802443.0,695.0
289,344952.0938,3802255.0,670.0
290,344660.9063,3802156.5,602.0
291,344520.25,3801902.5,575.0
292,344379.5625,3801648.75,548.0
293,344128.8125,3801529.25,612.5
294,343878.0625,3801409.75,677.0
295,343661.4375,3801561.25,662.0
296,343444.8438,3801712.75,647.0
297,343258.5,3801539.0,608.5
298,343072.125,3801365.5,570.0
299,342743.6563,3801404.25,568.0
300,342321.0,3801589.0,571.0
301,341839.5313,3801579.75,584.0
302,341551.1563,3801597.25,584.5
303,341262.7813,3801614.75,585.0
304,341043.4688,3801898.0,623.0
305,340797.7813,3801668.25,597.0
306,340552.0938,3801438.5,571.0
307,340522.4063,3801822.0,595.0
308,340190.375,3802036.25,636.0
309,339932.1563,3802355.0,659.0
310,339689.7813,3802489.25,647.5
311,339447.4063,3802623.5,636.0
312,339207.5938,3802874.0,653.0
313,338967.7813,3803124.75,670.0
314,338663.0625,3802940.5,657.0
315,338499.2188,3803164.5,661.5
316,338335.375,3803388.25,666.0
317,338227.7188,3803844.25,693.0
318,337929.6875,3804200.25,733.0
319,337535.2813,3804103.25,792.0
320,337328.3125,3804386.0,747.5
321,337121.3438,3804668.75,703.0
